unixtime,temp,oxy
1496298780,9.343728,7.55578
1496299380,9.297429,7.564139
1496299980,9.260365,7.581817
1496300580,9.223279,7.593437
1496301180,9.19545,7.602171
1496301780,9.158325,7.583284
1496302380,9.121179,7.601051
1496302980,9.093304,7.603701
1496303580,9.065417,7.563659
1496304180,9.028215,7.557063
1496304780,9.000299,7.58408
1496305380,8.97237,7.598968
1496305980,8.944428,7.620016
1496306580,8.916474,7.62885
1496307180,8.897831,7.634749
1496307780,8.869856,7.655912
1496308380,8.841867,7.664805
1496308980,8.823202,7.664579
1496309580,8.795192,7.661166
1496310180,8.776512,7.660948
1496310780,8.757826,7.654578
1496311380,8.729787,7.663498
1496311980,8.701734,7.672436
1496312580,8.664311,7.665872
1496313180,8.636228,7.650194
1496313780,8.589395,7.652803
1496314380,8.542525,7.655433
1496314980,8.495619,7.658085
1496315580,8.448676,7.679248
1496316180,8.411096,7.697471
1496316780,8.373491,7.72195
1496317380,8.335863,7.746518
1496317980,8.298212,7.783672
1496318580,8.269958,7.824222
1496319180,8.251114,7.887197
1496319780,8.251114,7.989232
1496320380,8.251114,8.073113
1496320980,8.269958,8.158033
1496321580,8.298212,8.260534
1496322180,8.326453,8.36437
1496322780,8.382895,8.521117
1496323380,8.467458,8.670836
1496323980,8.561277,8.827138
1496324580,8.654951,8.957629
1496325180,8.76717,9.083334
1496325780,8.907153,9.185687
1496326380,9.065417,9.297586
1496326980,9.241825,9.389015
1496327580,9.426982,9.47068
1496328180,9.620817,9.542347
1496328780,9.832442,9.631593
1496329380,10.079997,9.684375
1496329980,10.344859,9.731284
1496330580,10.608682,9.771521
1496331180,10.889579,9.822049
1496331780,11.178358,9.83812
1496332380,11.465972,9.839181
1496332980,11.761393,9.87866
1496333580,12.064549,9.883398
1496334180,12.375374,9.894215
1496334780,12.693807,9.919523
1496335380,13.002199,9.900131
1496335980,13.318221,9.911748
1496336580,13.633088,9.924803
1496337180,13.964246,9.991311
1496337780,14.276883,10.032863
1496338380,14.597144,9.996569
1496338980,14.899148,9.968052
1496339580,15.208862,10.0052
1496340180,15.517688,9.984347
1496340780,15.825666,9.956221
1496341380,16.132837,9.920822
1496341980,16.430742,9.772132
1496342580,16.498736,9.648865
1496343180,16.583679,9.481097
1496343780,16.626131,9.386483
1496344380,16.575188,9.237943
1496344980,16.541215,9.163697
1496345580,16.498736,9.131448
1496346180,16.439243,9.166682
1496346780,16.430742,9.31012
1496347380,16.592171,9.502383
1496347980,16.795801,9.644008
1496348580,17.007594,9.686052
1496349180,17.19371,9.754534
1496349780,17.379591,9.798899
1496350380,17.531506,9.805031
1496350980,17.61584,9.478188
1496351580,17.49776,9.229833
1496352180,17.362702,8.972171
1496352780,17.210618,8.765604
1496353380,16.999128,8.518848
1496353980,16.761884,8.30947
1496354580,16.558202,8.260287
1496355180,16.42224,8.433914
1496355780,16.294644,8.537239
1496356380,16.141359,8.563833
1496356980,16.013475,8.589802
1496357580,15.902533,8.61776
1496358180,15.834209,8.821791
1496358780,15.800032,8.832915
1496359380,15.723098,8.718549
1496359980,15.628998,8.719805
1496360580,15.440562,8.458349
1496361180,15.311901,8.598357
1496361780,15.217453,8.614381
1496362380,15.114324,8.597536
1496362980,14.985271,8.610575
1496363580,14.84744,8.63375
1496364180,14.657617,8.489465
1496364780,14.450128,8.204056
1496365380,14.242197,8.061265
1496365980,14.051194,7.923112
1496366580,13.868508,7.82376
1496367180,13.659276,7.708853
1496367780,13.449553,7.614937
1496368380,13.283165,7.540577
1496368980,13.116454,7.455216
1496369580,12.958214,7.392637
1496370180,12.782037,7.318161
1496370780,12.60548,7.244827
1496371380,12.410819,7.195071
1496371980,12.215676,7.151837
1496372580,12.028946,7.10673
1496373180,11.841758,7.102303
1496373780,11.671996,7.087387
1496374380,11.501844,7.09564
1496374980,11.331296,7.104152
1496375580,11.178358,7.11924
1496376180,11.007038,7.128256
1496376780,10.862445,7.15273
1496377380,10.717552,7.177463
1496377980,10.599601,7.188691
1496378580,10.481447,7.211671
1496379180,10.363087,7.240673
1496379780,10.262773,7.258644
1496380380,10.153168,7.273601
1496380980,10.043381,7.282826
1496381580,9.942582,7.342447
1496382180,9.841628,7.378831
1496382780,9.758912,7.386058
1496383380,9.67609,7.387404
1496383980,9.593162,7.412638
1496384580,9.510126,7.455994
1496385180,9.436226,7.472711
1496385780,9.371492,7.480634
1496386380,9.297429,7.497496
1496386980,9.232552,7.49949
1496387580,9.17689,7.52281
1496388180,9.111889,7.530936
1496388780,9.056119,7.530148
1496389380,9.009606,7.538602
1496389980,8.963058,7.583584
1496390580,8.916474,7.598241
1496391180,8.879182,7.616122
1496391780,8.841867,7.615665
1496392380,8.813866,7.61227
1496392980,8.795192,7.648858
1496393580,8.76717,7.64546
1496394180,8.729787,7.663498
1496394780,8.701734,7.641661
1496395380,8.664311,7.684379
1496395980,8.636228,7.656345
1496396580,8.608132,7.696164
1496397180,8.580024,7.668104
1496397780,8.561277,7.704988
1496398380,8.542525,7.686256
1496398980,8.523767,7.717028
1496399580,8.505003,7.716856
1496400180,8.486233,7.698107
1496400780,8.467458,7.704132
1496401380,8.448676,7.710163
1496401980,8.429889,7.685264
1496402580,8.411096,7.685111
1496403180,8.392296,7.734518
1496403780,8.382895,7.74377
1496404380,8.382895,7.787445
1496404980,8.382895,7.837663
1496405580,8.382895,7.907242
1496406180,8.401697,8.016164
1496406780,8.448676,8.156336
1496407380,8.505003,8.329252
1496407980,8.570651,8.420979
1496408580,8.626864,8.517131
1496409180,8.701734,8.663487
1496409780,8.80453,8.837988
1496410380,8.935112,8.955258
1496410980,9.028215,9.051718
1496411580,9.102597,9.075301
1496412180,9.232552,9.256469
1496412780,9.445468,9.38695
1496413380,9.685298,9.60294
1496413980,9.905889,9.745011
1496414580,10.207993,9.865651
1496415180,10.490543,9.931478
1496415780,10.744742,10.018267
1496416380,10.898621,10.006071
1496416980,11.106274,9.939838
1496417580,11.29534,9.955216
1496418180,11.394176,9.932598
1496418780,11.546659,9.703208
1496419380,11.788191,9.941963
1496419980,12.144594,10.008884
1496420580,12.508209,10.058188
1496421180,12.826116,10.101808
1496421780,13.151578,10.084569
1496422380,13.475796,10.085674
1496422980,13.798818,10.071308
1496423580,14.138061,10.051734
1496424180,14.467435,10.045434
1496424780,14.778454,10.030084
1496425380,15.036911,10.009774
1496425980,15.243219,9.983978
1496426580,15.414842,9.971378
1496427180,15.60332,9.843555
1496427780,15.834209,9.877136
1496428380,15.95375,9.800553
1496428980,15.93668,9.625192
1496429580,15.868376,9.383716
1496430180,15.91107,9.569149
1496430780,16.1584,9.727525
1496431380,16.1584,9.531263
1496431980,15.919607,9.109313
1496432580,15.705995,8.716786
1496433180,15.61188,8.517153
1496433780,15.543384,8.610145
1496434380,15.551949,8.847502
1496434980,15.59476,9.012585
1496435580,15.646113,9.1784
1496436180,15.697442,9.269489
1496436780,15.765846,9.379518
1496437380,15.834209,9.387581
1496437980,15.842752,9.297982
1496438580,15.800032,9.273465
1496439180,15.731649,9.027431
1496439780,15.59476,8.71632
1496440380,15.406267,8.322982
1496440980,15.251807,8.364152
1496441580,15.363384,8.682375
1496442180,15.60332,8.942109
1496442780,15.59476,8.723591
1496443380,15.800032,8.744769
1496443980,15.808577,8.727423
1496444580,15.569075,8.601942
1496445180,15.457706,8.509289
1496445780,15.663225,7.55373
1496446380,16.26911,6.78831
1496446980,16.507233,6.603697
1496447580,16.396731,6.690485
1496448180,16.141359,6.720941
1496448780,15.893994,6.810708
1496449380,15.628998,6.855959
1496449980,15.354805,6.904235
1496450580,15.19168,7.171311
1496451180,15.045515,7.371743
1496451780,14.84744,7.206071
1496452380,14.666253,6.864948
1496452980,14.597144,6.523773
1496453580,14.588502,6.210867
1496454180,14.545281,5.964308
1496454780,14.476088,5.855421
1496455380,14.346218,5.851459
1496455980,14.172786,5.929084
1496456580,13.955547,6.027795
1496457180,13.71163,6.104915
1496457780,13.449553,6.162625
1496458380,13.195463,6.214165
1496458980,12.958214,6.23191
1496459580,12.746756,6.233481
1496460180,12.525903,6.227486
1496460780,12.322178,6.227525
1496461380,12.135704,6.243608
1496461980,11.948779,6.275181
1496462580,11.779259,6.307738
1496463180,11.609354,6.356056
1496463780,11.44803,6.387133
1496464380,11.29534,6.416221
1496464980,11.160344,6.446116
1496465580,11.034116,6.453043
1496466180,10.907663,6.549352
1496466780,10.78098,6.609745
1496467380,10.654065,6.692358
1496467980,10.545094,6.738403
1496468580,10.435948,6.795797
1496469180,10.335743,6.862262
1496469780,10.244518,6.910128
1496470380,10.153168,6.958387
1496470980,10.061691,6.984499
1496471580,9.979254,7.013786
1496472180,9.878356,7.042885
1496472780,9.786496,7.092319
1496473380,9.685298,7.127632
1496473980,9.602382,7.140497
1496474580,9.519358,7.170737
1496475180,9.436226,7.206958
1496475780,9.352984,7.243415
1496476380,9.2789,7.27147
1496476980,9.204728,7.311431
1496477580,9.130468,7.345742
1496478180,9.056119,7.380258
1496478780,8.981681,7.420944
1496479380,8.897831,7.446799
1496479980,8.832535,7.485044
1496480580,8.776512,7.508516
1496481180,8.711086,7.541076
1496481780,8.664311,7.543622
1496482380,8.608132,7.567356
1496482980,8.561277,7.582132
1496483580,8.514386,7.590852
1496484180,8.467458,7.587398
1496484780,8.429889,7.599292
1496485380,8.392296,7.605104
1496485980,8.345273,7.607807
1496486580,8.298212,7.616649
1496487180,8.24169,7.622398
1496487780,8.194547,7.643571
1496488380,8.147366,7.664822
1496488980,8.109595,7.676943
1496489580,8.062347,7.69832
1496490180,8.024521,7.722918
1496490780,7.996135,7.763215
1496491380,7.967736,7.809995
1496491980,7.939323,7.882338
1496492580,7.929849,7.94904
1496493180,7.920373,8.022745
1496493780,7.929849,8.103719
1496494380,7.948795,8.202017
1496494980,7.98667,8.308305
1496495580,8.043437,8.450034
1496496180,8.128484,8.618763
1496496780,8.222837,8.759432
1496497380,8.326453,8.892025
1496497980,8.458068,9.001862
1496498580,8.598764,9.132008
1496499180,8.757826,9.242427
1496499780,8.944428,9.328846
1496500380,9.139755,9.428411
1496500980,9.343728,9.495271
1496501580,9.574719,9.57588
1496502180,9.814068,9.638789
1496502780,10.070845,9.680054
1496503380,10.344859,9.723322
1496503980,10.644991,9.749281
1496504580,10.943815,9.776634
1496505180,11.250369,9.7777
1496505780,11.573535,9.797335
1496506380,11.895288,9.810409
1496506980,12.206795,9.803999
1496507580,12.56128,9.839038
1496508180,12.896595,9.84998
1496508780,13.213011,9.844514
1496509380,13.536998,9.837096
1496509980,13.877216,9.849284
1496510580,14.198821,9.844744
1496511180,14.519339,9.833288
1496511780,14.838819,9.814876
1496512380,15.165901,9.811205
1496512980,15.491985,9.833896
1496513580,15.817122,9.824679
1496514180,16.10727,9.812277
1496514780,16.252084,9.628644
1496515380,16.371217,9.505906
1496515980,16.651595,9.562995
1496516580,16.965261,9.569045
1496517180,17.168345,9.581143
1496517780,17.388035,9.596237
1496518380,17.455567,9.426884
1496518980,17.641131,9.388998
1496519580,17.88541,9.436646
1496520180,17.902244,9.294727
1496520780,18.070488,9.287376
1496521380,18.356136,9.329872
1496521980,18.356136,9.077524
1496522580,18.356136,9.000308
1496523180,18.498794,9.024662
1496523780,18.540732,8.980709
1496524380,18.59943,8.901322
1496524980,18.641347,8.812831
1496525580,18.532345,8.586989
1496526180,18.507182,8.638421
1496526780,18.59943,8.625267
1496527380,18.658111,8.70329
1496527980,18.691635,8.760005
1496528580,18.80055,8.809137
1496529180,18.867546,8.803698
1496529780,18.842425,8.803854
1496530380,18.792174,8.78168
1496530980,18.641347,8.554368
1496531580,18.565891,8.454247
1496532180,18.498794,8.438332
1496532780,18.414891,8.37777
1496533380,18.288965,8.323106
1496533980,18.146145,8.246194
1496534580,17.986387,8.147894
1496535180,17.775951,8.065836
1496535780,17.556811,7.974413
1496536380,17.320472,7.837281
1496536980,17.058377,7.749165
1496537580,16.778843,7.623487
1496538180,16.464743,7.479568
1496538780,16.14988,7.358003
1496539380,15.851294,7.235178
1496539980,15.543384,7.117894
1496540580,15.251807,6.993474
1496541180,14.968052,6.931864
1496541780,14.718054,6.879346
1496542380,14.467435,6.844501
1496542980,14.224849,6.802613
1496543580,13.972944,6.774776
1496544180,13.702906,6.763128
1496544780,13.440804,6.749809
1496545380,13.177912,6.758943
1496545980,12.923008,6.777262
1496546580,12.676149,6.799279
1496547180,12.446247,6.822585
1496547780,12.233437,6.863715
1496548380,12.028946,6.886288
1496548980,11.832833,6.923562
1496549580,11.645156,6.953231
1496550180,11.457002,7.000239
1496550780,11.286348,7.025716
1496551380,11.133314,7.057775
1496551980,10.97995,7.078743
1496552580,10.835301,7.120294
1496553180,10.708486,7.156987
1496553780,10.59052,7.197143
1496554380,10.481447,7.234955
1496554980,10.38131,7.264507
1496555580,10.290146,7.291548
1496556180,10.207993,7.304251
1496556780,10.125738,7.328832
1496557380,10.043381,7.359475
1496557980,9.970088,7.375639
1496558580,9.896713,7.409762
1496559180,9.823256,7.432109
1496559780,9.768108,7.442948
1496560380,9.703709,7.456647
1496560980,9.64846,7.473593
1496561580,9.593162,7.478554
1496562180,9.537817,7.507676
1496562780,9.491659,7.509858
1496563380,9.445468,7.524159
1496563980,9.399243,7.544573
1496564580,9.362239,7.550015
1496565180,9.325213,7.561554
1496565780,9.297429,7.564139
1496566380,9.251095,7.572526
1496566980,9.214004,7.584135
1496567580,9.167609,7.580374
1496568180,9.130468,7.604246
1496568780,9.093304,7.615942
1496569380,9.046819,7.606097
1496569980,9.009606,7.611701
1496570580,8.97237,7.605081
1496571180,8.935112,7.61071
1496571780,8.897831,7.604117
1496572380,8.869856,7.594605
1496572980,8.832535,7.600262
1496573580,8.785853,7.602771
1496574180,8.748481,7.608462
1496574780,8.701734,7.604895
1496575380,8.654951,7.619702
1496575980,8.608132,7.634556
1496576580,8.570651,7.664933
1496577180,8.533147,7.701627
1496577780,8.514386,7.757357
1496578380,8.505003,7.816718
1496578980,8.505003,7.886124
1496579580,8.505003,7.949759
1496580180,8.505003,8.026806
1496580780,8.533147,8.121208
1496581380,8.551902,8.233192
1496581980,8.608132,8.380873
1496582580,8.701734,8.545634
1496583180,8.795192,8.706929
1496583780,8.907153,8.843346
1496584380,9.037518,8.982652
1496584980,9.186171,9.110301
1496585580,9.352984,9.233313
1496586180,9.547044,9.355662
1496586780,9.731317,9.430156
1496587380,9.933411,9.506534
1496587980,10.107445,9.532495
1496588580,10.335743,9.584753
1496589180,10.599601,9.639851
1496589780,10.880536,9.681431
1496590380,11.169351,9.736924
1496590980,11.483911,9.75145
1496591580,11.797121,9.775476
1496592180,12.117922,9.797583
1496592780,12.446247,9.809707
1496593380,12.782037,9.811849
1496593980,13.107671,9.835248
1496594580,13.449553,9.820761
1496595180,13.790103,9.807809
1496595780,14.120694,9.807823
1496596380,14.458782,9.814351
1496596980,14.78708,9.80905
1496597580,15.114324,9.780323
1496598180,15.440562,9.802628
1496598780,15.740199,9.785765
1496599380,16.022005,9.784425
1496599980,16.320174,9.80308
1496600580,16.626131,9.786456
1496601180,16.939855,9.80151
1496601780,17.227524,9.767875
1496602380,17.464007,9.735996
1496602980,17.716981,9.70736
1496603580,17.91066,9.649546
1496604180,18.078896,9.692378
1496604780,18.30576,9.699112
1496605380,18.565891,9.737261
1496605980,18.775421,9.691978
1496606580,18.968,9.619389
1496607180,19.152046,9.550371
1496607780,19.327588,9.484815
1496608380,19.503001,9.436308
1496608980,19.669946,9.390946
1496609580,19.795086,9.359235
1496610180,19.94518,9.327963
1496610780,20.053532,9.253555
1496611380,20.170175,9.233253
1496611980,20.245137,9.201972
1496612580,20.295102,9.178538
1496613180,20.336733,9.102221
1496613780,20.36171,9.016026
1496614380,20.386684,8.938501
1496614980,20.386684,8.89991
1496615580,20.370035,8.843522
1496616180,20.328407,8.726975
1496616780,20.27012,8.684105
1496617380,20.186835,8.567533
1496617980,20.086863,8.494029
1496618580,20.011863,8.414301
1496619180,19.911833,8.321358
1496619780,19.795086,8.220511
1496620380,19.669946,8.130553
1496620980,19.51135,8.024048
1496621580,19.327588,7.906398
1496622180,19.126958,7.822015
1496622780,18.884292,7.711622
1496623380,18.632964,7.586987
1496623980,18.372925,7.449062
1496624580,18.070488,7.217361
1496625180,17.759104,7.060775
1496625780,17.438687,6.92254
1496626380,17.126059,6.786285
1496626980,16.787322,6.681975
1496627580,16.490239,6.591664
1496628180,16.235056,6.525054
1496628780,15.987882,6.462943
1496629380,15.740199,6.433313
1496629980,15.500553,6.412672
1496630580,15.243219,6.381123
1496631180,14.985271,6.360577
1496631780,14.726685,6.340613
1496632380,14.476088,6.344801
1496632980,14.224849,6.359754
1496633580,13.981642,6.38339
1496634180,13.746515,6.40537
1496634780,13.528258,6.428652
1496635380,13.326982,6.46362
1496635980,13.125237,6.493812
1496636580,12.923008,6.52972
1496637180,12.71146,6.568412
1496637780,12.49936,6.602322
1496638380,12.304438,6.637431
1496638980,12.126814,6.662904
1496639580,11.975511,6.692384
1496640180,11.832833,6.736067
1496640780,11.698826,6.772286
1496641380,11.573535,6.811883
1496641980,11.44803,6.857359
1496642580,11.331296,6.889631
1496643180,11.214373,6.916576
1496643780,11.115288,6.933087
1496644380,11.007038,6.957861
1496644980,10.916703,6.977707
1496645580,10.817199,7.011539
1496646180,10.717552,7.039933
1496646780,10.644991,7.049332
1496647380,10.581437,7.05618
1496647980,10.517824,7.074461
1496648580,10.454152,7.092822
1496649180,10.372199,7.116547
1496649780,10.290146,7.140404
1496650380,10.207993,7.152862
1496650980,10.125738,7.171172
1496651580,10.043381,7.195378
1496652180,9.979254,7.196891
1496652780,9.905889,7.218566
1496653380,9.850812,7.234893
1496653980,9.795688,7.251283
1496654580,9.731317,7.258786
1496655180,9.657671,7.274939
1496655780,9.602382,7.285641
1496656380,9.547044,7.314022
1496656980,9.491659,7.33073
1496657580,9.436226,7.347501
1496658180,9.380744,7.358413
1496658780,9.325213,7.381234
1496659380,9.269633,7.386304
1496659980,9.223279,7.394517
1496660580,9.167609,7.4056
1496661180,9.121179,7.419841
1496661780,9.065417,7.442973
1496662380,9.028215,7.466451
1496662980,8.981681,7.511001
1496663580,8.953744,7.54393
1496664180,8.916474,7.61047
1496664780,8.888507,7.649993
1496665380,8.869856,7.742577
1496665980,8.860528,7.839557
1496666580,8.879182,7.947719
1496667180,8.897831,8.057408
1496667780,8.935112,8.168932
1496668380,8.990991,8.315792
1496668980,9.093304,8.469706
1496669580,9.204728,8.63744
1496670180,9.325213,8.798473
1496670780,9.473187,8.952832
1496671380,9.630032,9.07761
1496671980,9.832442,9.232417
1496672580,10.052537,9.361023
1496673180,10.244518,9.441171
1496673780,10.445051,9.542585
1496674380,10.681281,9.631903
1496674980,10.943815,9.720576
1496675580,11.232373,9.841271
1496676180,11.600401,9.991143
1496676780,11.984419,10.063651
1496677380,12.197912,9.963149
1496677980,12.384237,9.956732
1496678580,12.71146,10.028996
1496679180,13.081315,10.095018
1496679780,13.405798,10.146766
1496680380,13.545738,9.933038
1496680980,13.633088,9.809179
1496681580,13.851091,9.776844
1496682180,14.190143,9.847978
1496682780,14.527987,9.888217
1496683380,14.84744,9.92
1496683980,15.174494,9.958681
1496684580,15.560512,10.028127
1496685180,15.774393,9.865232
1496685780,15.740199,9.596862
1496686380,15.67178,9.364604
1496686980,15.680335,9.236411
1496687580,15.688889,9.210235
1496688180,15.705995,9.219915
1496688780,15.697442,9.176429
1496689380,15.731649,9.242238
1496689980,15.757297,9.194757
1496690580,15.748748,9.143703
1496691180,15.646113,8.861021
1496691780,15.491985,8.605083
